850	91.10974
849	91.18325
848	91.1455
847	90.99901
846	90.9325
845	91.05775
844	91.13351
843	91.04076
842	91.25375
841	91.32825
840	91.36525
839	91.31226
838	91.38225
837	91.427
836	91.51075
835	91.52251
834	91.45775
833	91.4635
832	91.56125
831	91.53975
830	91.54175
829	91.52525
828	91.504
827	91.4945
826	91.52375
825	91.505
824	91.51225
823	91.47675
822	91.54301
821	91.64825
820	91.6375
819	91.66725
818	91.72975
817	91.77126
816	91.77051
815	91.74675
814	91.73825
813	91.7735
812	91.7595
811	91.7575
810	91.78799
809	91.71575
808	91.70625
807	91.70226
806	91.70975
805	91.699
804	91.74049
803	91.73875
802	91.73
801	91.76726
800	91.73575
799	91.747
798	91.71625
797	91.7205
796	91.70399
795	91.7075
794	91.696
793	91.70275
792	91.7195
791	91.774
790	91.7225
789	91.74525
788	91.745
787	91.76801
786	91.76325
785	91.78575
784	91.81651
783	91.8215
782	91.80475
781	91.82375
780	91.82275
779	91.7995
778	91.79875
777	91.74525
776	91.75124
775	91.6955
774	91.71349
773	91.7305
772	91.7255
771	91.80475
770	91.8525
769	91.8865
768	91.88375
767	91.87624
766	91.89325
765	91.906
764	91.90424
763	91.82225
762	91.79449
761	91.80375
760	91.74975
759	91.78749
758	91.72925
757	91.7675
756	91.7915
755	91.81575
754	91.79825
753	91.778
752	91.74875
751	91.74225
750	91.77325
749	91.74976
748	91.789
747	91.795
746	91.79449
745	91.826
744	91.74924
743	91.76725
742	91.78175
741	91.7555
740	91.813
739	91.81825
738	91.814
737	91.8535
736	91.8015
735	91.7645
734	91.741
733	91.714
732	91.6705
731	91.68175
730	91.67575
729	91.65074
728	91.65
727	91.6715
726	91.68251
725	91.66225
724	91.64875
723	91.67725
722	91.668
721	91.63725
720	91.61725
719	91.569
718	91.54175
717	91.516
716	91.44749
715	91.44975
714	91.44276
713	91.45724
712	91.41174
711	91.427
710	91.42775
709	91.39075
708	91.39575
707	91.37275
706	91.407
705	91.34351
704	91.33775
703	91.323
702	91.28825
701	91.23825
700	91.1745
699	91.17175
698	91.14101
697	91.1035
696	91.04874
695	91.06525
694	91.049
693	91.043
692	91.03725
691	91.03125
690	91.039
689	91.01125
688	91.02475
687	91.0145
686	91.009
685	90.978
684	90.96201
683	90.92225
682	90.89875
681	90.87225
680	90.80025
679	90.75425
678	90.6235
677	90.57326
676	90.48924
675	90.44475
674	90.371
673	90.293
672	90.299
671	90.27925
670	90.23375
669	90.1705
668	90.15025
667	90.10575
666	90.03175
665	89.95274
664	89.898
663	89.86349
662	89.81325
661	89.74375
660	89.69525
659	89.63899
658	89.61275
657	89.513
656	89.45924
655	89.37975
654	89.35325
653	89.30175
652	89.2455
651	89.16949
650	89.114
649	89.02126
648	88.97626
647	88.9
646	88.7845
645	88.73949
644	88.6505
643	88.60249
642	88.4985
641	88.3965
640	88.28751
639	88.23
638	88.1265
637	88.0035
636	87.9475
635	87.8855
634	87.805
633	87.73026
632	87.658
631	87.56925
630	87.47575
629	87.36825
628	87.26075
627	87.122
626	86.99525
625	86.886
624	86.7775
623	86.6295
622	86.50375
621	86.3805
620	86.223
619	86.10051
618	85.94749
617	85.80624
616	85.7025
615	85.564
614	85.409
613	85.24
612	85.0805
611	84.9155
610	84.74174
609	84.5695
608	84.41475
607	84.2645
606	84.09
605	83.89975
604	83.7265
603	83.505
602	83.313
601	83.08725
600	82.87775
599	82.6485
598	82.4155
597	82.1935
596	81.96675
595	81.725
594	81.45876
593	81.202
592	80.95226
591	80.70025
590	80.422
589	80.16125
588	79.879
587	79.57675
586	79.30949
585	78.99426
584	78.67751
583	78.3745
582	78.04275
581	77.709
580	77.35275
579	76.97625
578	76.604
577	76.228
576	75.8485
575	75.44125
574	75.01025
573	74.594
572	74.1655
571	73.7175
570	73.2365
569	72.79425
568	72.312
567	71.78975
566	71.277
565	70.76425
564	70.225
563	69.65475
562	69.09
561	68.5065
560	67.8865
559	67.25025
558	66.617
557	65.94725
556	65.265
555	64.54449
554	63.802
553	63.058
552	62.26275
551	61.44975
550	60.6
549	59.71875
548	58.814
547	57.8615
546	56.90825
545	55.89275
544	54.8605
543	53.796
542	52.6855
541	51.5555
540	50.38475
539	49.178
538	47.92275
537	46.6285
536	45.3315
535	43.96675
534	42.5795
533	41.1435
532	39.682
531	38.18275
530	36.6415
529	35.1
528	33.51725
527	31.94675
526	30.36
525	28.771
524	27.1815
523	25.57675
522	24.01875
521	22.44925
520	19.082
519	18.13925
518	17.21725
517	16.33175
516	15.06025
515	13.741
514	12.508
513	11.3835
512	10.37475
511	9.495
510	8.75425
509	8.15525
508	7.68675
507	7.3305
506	7.07625
505	6.89675
504	6.77725
503	6.6975
502	6.6455
501	6.61225
500	6.59075
499	6.57525
498	6.563
497	6.556
496	6.55075
495	6.5475
494	6.54625
493	6.54625
492	6.54425
491	6.544
490	6.54375
489	6.5455
488	6.5435
487	6.5375
486	6.53225
485	6.5255
484	6.524
483	6.5165
482	6.508
481	6.5075
480	6.50425
479	6.501
478	6.49975
477	6.49575
476	6.498
475	6.49575
474	6.4895
473	6.49
472	6.493
471	6.49425
470	6.4945
469	6.49425
468	6.4975
467	6.50425
466	6.50575
465	6.5075
464	6.50825
463	6.51525
462	6.5185
461	6.51925
460	6.52175
459	6.523
458	6.529
457	6.53375
456	6.53875
455	6.54125
454	6.547
453	6.55525
452	6.56125
451	6.5665
450	6.57375
449	6.57725
448	6.58925
447	6.597
446	6.606
445	6.61325
444	6.61625
443	6.6215
442	6.63175
441	6.6395
440	6.6495
439	6.65625
438	6.664
437	6.67075
436	6.688
435	6.69525
434	6.7
433	6.70925
432	6.724
431	6.73425
430	6.74225
429	6.744
428	6.7515
427	6.754
426	6.76475
425	6.77375
424	6.7815
423	6.794
422	6.802
421	6.81825
420	6.84075
419	6.8435
418	6.85275
417	6.8625
416	6.8815
415	6.88825
414	6.9005
413	6.91925
412	6.9315
411	6.94775
410	6.9555
409	6.9685
408	6.98225
407	6.9925
406	6.997
405	7.01575
404	7.0315
403	7.04775
402	7.0715
401	7.09175
400	7.1135
399	7.131
398	7.1485
397	7.163
396	7.17175
395	7.181
394	7.18775
393	7.205
392	7.225
391	7.24425
390	7.2535
389	7.28225
388	7.307
387	7.3295
386	7.3475
385	7.36825
384	7.39475
383	7.419
382	7.43925
381	7.45475
380	7.47475
379	7.4955
378	7.52075
377	7.54275
376	7.562
375	7.58775
374	7.61275
373	7.62975
372	7.65325
371	7.675
370	7.71975
369	7.74175
368	7.74875
367	7.7525
366	7.77525
365	7.79925
364	7.80925
363	7.81025
362	7.82125
361	7.8415
360	7.857
359	7.87
358	7.88125
357	7.918
356	7.9555
355	7.98225
354	8.01475
353	8.036
352	8.05975
351	8.09725
350	8.1275
349	8.13675
348	8.1605
347	8.18725
346	8.22625
345	8.25825
344	8.279
343	8.322
342	8.3315
341	8.35875
340	8.55
339	8.61125
338	8.684
337	8.74125
336	8.80075
335	8.83925
334	8.87875
333	8.8985
332	8.92525
331	8.973
330	8.97825
329	9.0265
328	9.05375
327	9.09475
326	9.15475
325	9.19375
324	9.23625
323	9.27025
322	9.3245
321	9.3575
320	9.40125
319	9.46325
318	9.50875
317	9.57275
316	9.622
315	9.68525
314	9.75725
313	9.8135
312	9.87725
311	9.9705
310	10.027
309	10.08125
308	10.12425
307	10.168
306	10.22575
305	10.2955
304	10.35975
303	10.41625
302	10.4955
301	10.58375
300	10.69
299	10.7385
298	10.78475
297	10.8545
296	10.9335
295	11.0295
294	11.12425
293	11.23725
292	11.36575
291	11.493
290	11.62825
289	11.71
288	11.8035
287	11.894
286	11.98375
285	12.0855
284	12.1695
283	12.29625
282	12.41225
281	12.47475
280	12.585
279	12.66325
278	12.7385
277	12.842
276	12.9045
275	12.95775
274	13.0595
273	13.12025
272	13.219
271	13.29175
270	13.369
269	13.45125
268	13.50475
267	13.54475
266	13.616
265	13.642
264	13.64075
263	13.72775
262	13.8135
261	13.87525
260	13.931
259	14.02525
258	14.1175
257	14.221
256	14.31025
255	14.36625
254	14.477
253	14.61025
252	14.78375
251	14.8885
250	15.05325
249	15.271
248	15.4735
247	15.67225
246	15.87425
245	16.13225
244	16.4035
243	16.70925
242	17.0355
241	17.3875
240	17.758
239	18.13975
238	18.53625
237	18.86425
236	19.20225
235	19.49975
234	19.86025
233	20.18
232	20.47875
231	20.819
230	21.168
229	21.48725
228	21.70725
227	21.9485
226	22.2275
225	22.4335
224	22.7555
223	23.01325
222	23.4005
221	23.82775
220	24.13225
219	24.65775
218	25.0225
217	25.42625
216	25.9865
215	26.44475
214	26.98775
213	27.74175
212	28.5055
211	29.4135
210	30.3455
209	31.5325
208	32.718
207	33.99575
206	35.752
205	37.069
204	38.1265
203	39.61125
202	41.30125
201	42.76075
200	43.59925
